Frequence_(Hz),Transforme_de_fourier
0.0,5.516223148387763
0.00244140625,7.285067224561696
0.0048828125,10.97262420292334
0.00732421875,15.185863923573189
0.009765625,19.513182260055572
0.01220703125,23.80851325547893
0.0146484375,27.99772639943034
0.01708984375,32.03171143297781
0.01953125,35.87231688959339
0.02197265625,39.48734873201189
0.0244140625,42.84859595204864
0.02685546875,45.93102889960752
0.029296875,48.71250609980902
0.03173828125,51.17372039914486
0.0341796875,53.29826331996949
0.03662109375,55.07274762988456
0.0390625,56.48695551135778
0.04150390625,57.533992931578084
0.0439453125,58.21043772958416
0.04638671875,58.516472958516275
0.048828125,58.4559997154697
0.05126953125,58.03672583170933
0.0537109375,57.27022878913034
0.05615234375,56.17199331010283
0.05859375,54.76142638899766
0.06103515625,53.06185519938285
0.0634765625,51.10051637804351
0.06591796875,48.90854861887205
0.068359375,46.52100404881146
0.07080078125,43.976896738615615
0.0732421875,41.3193070456959
0.07568359375,38.59555411556452
0.078125,35.85742714806961
0.08056640625,33.161412565539486
0.0830078125,30.568741645742666
0.08544921875,28.14487671624366
0.087890625,25.957741373034143
0.09033203125,24.073684074225174
0.0927734375,22.55022299033863
0.09521484375,21.425732118760745
0.09765625,20.708714454287268
0.10009765625,20.37172514720974
0.1025390625,20.354253262972044
0.10498046875,20.574057707297914
0.107421875,20.94167966507083
0.10986328125,21.372470531383154
0.1123046875,21.793625698621895
0.11474609375,22.146751187746514
0.1171875,22.387656170335998
0.11962890625,22.48487373148208
0.1220703125,22.417826623971422
0.12451171875,22.175072115809783
0.126953125,21.752778126225287
0.12939453125,21.153450422034876
0.1318359375,20.384881955127128
0.13427734375,19.45928657426275
0.13671875,18.392587337785653
0.13916015625,17.203844572578003
0.1416015625,15.914828035880221
0.14404296875,14.549762820060701
0.146484375,13.13531547535789
0.14892578125,11.700944748940298
0.1513671875,10.279832359114836
0.15380859375,8.910731167168445
0.15625,7.641119376549298
0.15869140625,6.5315028073582
0.1611328125,5.657820568973168
0.16357421875,5.101306398943852
0.166015625,4.911750864746128
0.16845703125,5.063174354355087
0.1708984375,5.460274638186147
0.17333984375,5.992515308764849
0.17578125,6.57279903144385
0.17822265625,7.143801423028828
0.1806640625,7.671023826930691
0.18310546875,8.1352373928108
0.185546875,8.527240158817577
0.18798828125,8.844580571818526
0.1904296875,9.089503889985505
0.19287109375,9.267587512076986
0.1953125,9.386745136860295
0.19775390625,9.456417065377922
0.2001953125,9.48684539378539
0.20263671875,9.48838359448497
0.205078125,9.470826060164928
0.20751953125,9.442772144028362
0.2099609375,9.411062189030694
0.21240234375,9.380336724736786
0.21484375,9.35276971148296
0.21728515625,9.32801017175212
0.2197265625,9.303337112502767
0.22216796875,9.273999308618283
0.224609375,9.233685218077532
0.22705078125,9.175056661516571
0.2294921875,9.090284082957451
0.23193359375,8.97153663288904
0.234375,8.81140005342445
0.23681640625,8.603213556579115
0.2392578125,8.341330525270145
0.24169921875,8.021316628236194
0.244140625,7.640104388531529
0.24658203125,7.196128108463828
0.2490234375,6.689471391792317
0.25146484375,6.12207857830309
0.25390625,5.498127523065524
0.25634765625,4.824777037152417
0.2587890625,4.113811972592681
0.26123046875,3.3855992266739716
0.263671875,2.679433287690984
0.26611328125,2.0808909805794054
0.2685546875,1.7680540217775893
0.27099609375,1.9289890546301303
0.2734375,2.4899369197157326
0.27587890625,3.251020524450704
0.2783203125,4.092983409730486
0.28076171875,4.958704633656866
0.283203125,5.816784870661335
0.28564453125,6.646353145556612
0.2880859375,7.431412702223007
0.29052734375,8.158645654159475
0.29296875,8.816531913294916
0.29541015625,9.395011163462236
0.2978515625,9.885386656403234
0.30029296875,10.280342435999577
0.302734375,10.574014881177606
0.30517578125,10.762089876157736
0.3076171875,10.841911814041143
0.31005859375,10.812599220329757
0.3125,10.675168120659555
0.31494140625,10.432670576807602
0.3173828125,10.09036375376122
0.31982421875,9.6559362791972
0.322265625,9.13983584434189
0.32470703125,8.55576762746983
0.3271484375,7.921467971791653
0.32958984375,7.2598913272024115
0.33203125,6.600927489661113
0.33447265625,5.9835092970156065
0.3369140625,5.457028276161663
0.33935546875,5.0788157471276305
0.341796875,4.902480040020644
0.34423828125,4.956907790939185
0.3466796875,5.23060851433528
0.34912109375,5.6781267620213605
0.3515625,6.2413854375864934
0.35400390625,6.866634954664835
0.3564453125,7.510652920945791
0.35888671875,8.140529284634482
0.361328125,8.731563577013334
0.36376953125,9.265240192910138
0.3662109375,9.727742287314017
0.36865234375,10.108956055012317
0.37109375,10.401821664326084
0.37353515625,10.601908430260632
0.3759765625,10.707130486726012
0.37841796875,10.717550848271921
0.380859375,10.63524398836496
0.38330078125,10.464202372372423
0.3857421875,10.210283436923653
0.38818359375,9.8812022461541
0.390625,9.486582588660804
0.39306640625,9.03808563874997
0.3955078125,8.549638518228248
0.39794921875,8.037778836427515
0.400390625,7.522100175179425
0.40283203125,7.025696441258536
0.4052734375,6.575313517773231
0.40771484375,6.200604831811745
0.41015625,5.931610861996658
0.41259765625,5.793893141658245
0.4150390625,5.802320321111185
0.41748046875,5.956638619224255
0.419921875,6.241907602167398
0.42236328125,6.633532493948274
0.4248046875,7.103564376479465
0.42724609375,7.625319609824337
0.4296875,8.175584541307858
0.43212890625,8.735093997482913
0.4345703125,9.288169731338407
0.43701171875,9.822097651312115
0.439453125,10.326517146477341
0.44189453125,10.792917338637917
0.4443359375,11.21425465283968
0.44677734375,11.584677338963168
0.44921875,11.899336048569703
0.45166015625,12.15426096397136
0.4541015625,12.346289357978876
0.45654296875,12.47303073790788
0.458984375,12.532859356730658
0.46142578125,12.524925870424541
0.4638671875,12.449181446625209
0.46630859375,12.306408854349096
0.46875,12.098256119550305
0.47119140625,11.827269305507203
0.4736328125,11.496921920669978
0.47607421875,11.111639383986445
0.478515625,10.676817862462501
0.48095703125,10.19883755113776
0.4833984375,9.685070900031688
0.48583984375,9.143886022089788
0.48828125,8.584643812713761
0.49072265625,8.017682871412914
0.4931640625,7.454277000362073
0.49560546875,6.906532885922014
0.498046875,6.387167881198479
0.50048828125,5.909071544121832
0.5029296875,5.484526317859205
0.50537109375,5.123987231997421
0.5078125,4.834466963366938
0.51025390625,4.617868885077082
0.5126953125,4.469914854535315
0.51513671875,4.380302289715026
0.517578125,4.334216050126148
0.52001953125,4.3146407859737295
0.5224609375,4.304633325371944
0.52490234375,4.288969597210863
0.52734375,4.255031322858736
0.52978515625,4.193097422395807
0.5322265625,4.096283759862606
0.53466796875,3.96032969765602
0.537109375,3.7833591682082166
0.53955078125,3.565693938710992
0.5419921875,3.309779197507632
0.54443359375,3.020299993787966
0.546875,2.704634438883053
0.54931640625,2.373940534768192
0.5517578125,2.0454515792380725
0.55419921875,1.7467884254998136
0.556640625,1.5215729697933484
0.55908203125,1.4264577627052117
0.5615234375,1.4993460511019383
0.56396484375,1.7234119819541522
0.56640625,2.0477519792695125
0.56884765625,2.426446796004747
0.5712890625,2.82905539211608
0.57373046875,3.236439896644908
0.576171875,3.6360705877860835
0.57861328125,4.019242440319005
0.5810546875,4.379609808890523
0.58349609375,4.712416501174014
0.5859375,5.01407462987344
0.58837890625,5.28191920967134
0.5908203125,5.514052989741131
0.59326171875,5.709238579395587
0.595703125,5.866815907154597
0.59814453125,5.986633692248125
0.6005859375,6.068989159606293
0.60302734375,6.1145731870706115
0.60546875,6.124419653309028
0.60791015625,6.099858572707257
0.6103515625,6.042472985160577
0.61279296875,5.9540596957877385
0.615234375,5.836593939828684
0.61767578125,5.692197949789499
0.6201171875,5.523113271613095
0.62255859375,5.331676547093441
0.625,5.120298374351536
0.62744140625,4.891444793052171
0.6298828125,4.647620926045114
0.63232421875,4.391356348823818
0.634765625,4.125191852925262
0.63720703125,3.8516674167456766
0.6396484375,3.5733113943098536
0.64208984375,3.2926311790477474
0.64453125,3.0121059025018058
0.64697265625,2.7341821075837838
0.6494140625,2.461273835321265
0.65185546875,2.1957692582279797
0.654296875,1.940046994153737
0.65673828125,1.6965066560407354
0.6591796875,1.4676199683492388
0.66162109375,1.2560099608997426
0.6640625,1.0645622187467663
0.66650390625,0.8965503116578375
0.6689453125,0.7556821840884138
0.67138671875,0.6457937953667405
0.673828125,0.5697119316753907
0.67626953125,0.5272018003159384
0.6787109375,0.5135554515161624
0.68115234375,0.5210643939845456
0.68359375,0.5426175464503701
0.68603515625,0.5744377900666472
0.6884765625,0.6168126652810124
0.69091796875,0.6734427867613645
0.693359375,0.7500243896499144
0.69580078125,0.8524930364128022
0.6982421875,0.9855336444708515
0.70068359375,1.1518905358312894
0.703125,1.3524738485138992
0.70556640625,1.5868370874263564
0.7080078125,1.8536403602875973
0.71044921875,2.1509536775815623
0.712890625,2.4764138065954096
0.71533203125,2.8272915547246726
0.7177734375,3.2005167528295013
0.72021484375,3.59268944475774
0.72265625,4.000091934779675
0.72509765625,4.4187083429444325
0.7275390625,4.844254159219994
0.72998046875,5.272216216254215
0.732421875,5.697902468933141
0.73486328125,6.116500433500674
0.7373046875,6.5231428393329
0.73974609375,6.912978864287551
0.7421875,7.281249209226373
0.74462890625,7.62336319892264
0.7470703125,7.934976068441663
0.74951171875,8.212064604692095
0.751953125,8.450999362143667
0.75439453125,8.648611759527123
0.7568359375,8.802254489721838
0.75927734375,8.909853836022652
0.76171875,8.969952681517363
0.76416015625,8.98174322032411
0.7666015625,8.945088624881645
0.76904296875,8.860533186382883
0.771484375,8.729300718919976
0.77392578125,8.55328129414699
0.7763671875,8.335006643334609
0.77880859375,8.077614817198732
0.78125,7.7848049183277
0.78369140625,7.460782900685268
0.7861328125,7.110199544808223
0.78857421875,6.738081737577079
0.791015625,6.349758072154045
0.79345703125,5.950779481701265
0.7958984375,5.546835056306292
0.79833984375,5.14366227825841
0.80078125,4.746949568107838
0.80322265625,4.3622272649759415
0.8056640625,3.994741215995609
0.80810546875,3.649301823375093
0.810546875,3.3301025014138532
0.81298828125,3.0405081778259246
0.8154296875,2.782830626913807
0.81787109375,2.558134793000144
0.8203125,2.36615276808711
0.82275390625,2.205401165006288
0.8251953125,2.073577951683684
0.82763671875,1.9682448617008552
0.830078125,1.887701485055016
0.83251953125,1.8318656515290053
0.8349609375,1.8029125684929395
0.83740234375,1.805394193064549
0.83984375,1.8456045768218186
0.84228515625,1.930191201217904
0.8447265625,2.0644520500418855
0.84716796875,2.251072121911269
0.849609375,2.489814729574461
0.85205078125,2.778047941133378
0.8544921875,3.1115875630456125
0.85693359375,3.4854238022915554
0.859375,3.8941797713987043
0.86181640625,4.332339191877619
0.8642578125,4.794333646321587
0.86669921875,5.274564143990266
0.869140625,5.767402551143006
0.87158203125,6.267196145643267
0.8740234375,6.768285468347337
0.87646484375,7.265038940645846
0.87890625,7.751904568926991
0.88134765625,8.22347765626214
0.8837890625,8.67458281915187
0.88623046875,9.100368289650868
0.888671875,9.49641025338085
0.89111328125,9.858824732654279
0.8935546875,10.184384218192093
0.89599609375,10.470635839954257
0.8984375,10.716017297359555
0.90087890625,10.919965977451557
0.9033203125,11.083015600182465
0.90576171875,11.206873269120813
0.908203125,11.29446793599404
0.91064453125,11.34995907085293
0.9130859375,11.378692030152454
0.91552734375,11.387084833064526
0.91796875,11.382430857026897
0.92041015625,11.372604895418883
0.9228515625,11.36566784819805
0.92529296875,11.36937928113541
0.927734375,11.390646686696149
0.93017578125,11.43496201846966
0.9326171875,11.505893247891825
0.93505859375,11.604703284531164
0.9375,11.730155242689895
0.93994140625,11.878532989369472
0.9423828125,12.043867871696023
0.94482421875,12.218328847877663
0.947265625,12.392713768065615
0.94970703125,12.556977275055008
0.9521484375,12.70074197732501
0.95458984375,12.813757139563181
0.95703125,12.886286630314082
0.95947265625,12.909421401088457
0.9619140625,12.875320240590563
0.96435546875,12.777386629140196
0.966796875,12.610390581690496
0.96923828125,12.370543749407519
0.9716796875,12.05553474108201
0.97412109375,11.664530235743037
0.9765625,11.198146297665316
0.97900390625,10.658393497319251
0.9814453125,10.048599016322145
0.98388671875,9.373308882437584
0.986328125,8.638173907214856
0.98876953125,7.849824014872807
0.9912109375,7.015738115574837
0.99365234375,6.144122327752052
0.99609375,5.243823660179077
0.99853515625,4.324347483720861
1.0009765625,3.396187070078676
1.00341796875,2.472267182001796
1.005859375,1.5748151082618205
1.00830078125,0.7874075230696673
1.0107421875,0.67494596418253
1.01318359375,1.363673051054681
1.015625,2.159736602888627
1.01806640625,2.94499861094263
1.0205078125,3.6973635519443495
1.02294921875,4.408623842254835
1.025390625,5.074727926350255
1.02783203125,5.693685984074783
1.0302734375,6.26489554953076
1.03271484375,6.788825193041157
1.03515625,7.266798758571044
1.03759765625,7.70080398521366
1.0400390625,8.093302181410316
1.04248046875,8.447034701387837
1.044921875,8.76483032240199
1.04736328125,9.0494217335959
1.0498046875,9.30328116576105
1.05224609375,9.52848528593401
1.0546875,9.726618064205212
1.05712890625,9.898717626365707
1.0595703125,10.045269520707292
1.06201171875,10.166244880798015
1.064453125,10.261178242528665
1.06689453125,10.32927678710525
1.0693359375,10.36955087013319
1.07177734375,10.380954972603217
1.07421875,10.36252857345158
1.07666015625,10.313527649769037
1.0791015625,10.233539251489935
1.08154296875,10.122573577181473
1.083984375,9.981129963475867
1.08642578125,9.810235042457537
1.0888671875,9.611452948039792
1.09130859375,9.386868855585067
1.09375,9.139048350671846
1.09619140625,8.870976193561958
1.0986328125,8.585979025319599
1.10107421875,8.287637481016242
1.103515625,7.979694030914428
1.10595703125,7.66596360506366
1.1083984375,7.350254543824074
1.11083984375,7.036307447057745
1.11328125,6.7277587717684435
1.11572265625,6.428134181063794
1.1181640625,6.140873269687136
1.12060546875,5.869382019904644
1.123046875,5.61710200941099
1.12548828125,5.387576316260858
1.1279296875,5.184482541320991
1.13037109375,5.01159636525916
1.1328125,4.872649707799504
1.13525390625,4.771062334826486
1.1376953125,4.709558758521504
1.14013671875,4.689728576556385
1.142578125,4.711629320271074
1.14501953125,4.773540074909488
1.1474609375,4.871936900118933
1.14990234375,5.001691632887936
1.15234375,5.156430757106876
1.15478515625,5.328961929703452
1.1572265625,5.511686787855332
1.15966796875,5.696951569842033
1.162109375,5.877320208378295
1.16455078125,6.0457761336478075
1.1669921875,6.195867966174
1.16943359375,6.321814743004264
1.171875,6.41858291778565
1.17431640625,6.481943177911675
1.1767578125,6.508511582998168
1.17919921875,6.495777060778387
1.181640625,6.4421158186655765
1.18408203125,6.34679250403595
1.1865234375,6.20994773567379
1.18896484375,6.032571748094988
1.19140625,5.816464215614228
1.19384765625,5.564180783156969
1.1962890625,5.27896740071138
1.19873046875,4.964684258243853
1.201171875,4.6257220266262475
1.20361328125,4.266914400850609
1.2060546875,3.8934529624846332
1.20849609375,3.5108138240638445
1.2109375,3.124711802225533
1.21337890625,2.7411099197013606
1.2158203125,2.3663359705145193
1.21826171875,2.0074059203635235
1.220703125,1.6727457599862765
1.22314453125,1.3736377365700074
1.2255859375,1.1266445654136432
1.22802734375,0.955528267707501
1.23046875,0.8850233510699971
1.23291015625,0.9197718207101748
1.2353515625,1.034592436366946
1.23779296875,1.1961732587023968
1.240234375,1.3812949550003388
1.24267578125,1.5776794886716659
1.2451171875,1.77975060171921
1.24755859375,1.985360880554406
1.25,2.1938865092856394
1.25244140625,2.4051593900539587
1.2548828125,2.6188704003838366
1.25732421875,2.8342552462433663
1.259765625,3.0499642344833533
1.26220703125,3.2640560890700234
1.2646484375,3.474073220144021
1.26708984375,3.677165795063885
1.26953125,3.8702397812112737
1.27197265625,4.05011102634755
1.2744140625,4.213653285993991
1.27685546875,4.357932653581751
1.279296875,4.480324087242899
1.28173828125,4.578607855031242
1.2841796875,4.651045023092403
1.28662109375,4.696431863980576
1.2890625,4.714133483484571
1.29150390625,4.704097207118804
1.2939453125,4.666846430141829
1.29638671875,4.603455777727516
1.298828125,4.5155085828854595
1.30126953125,4.405037898292567
1.3037109375,4.274452544808259
1.30615234375,4.126450101960806
1.30859375,3.963919311429653
1.31103515625,3.7898351461354873
1.3134765625,3.6071508397294245
1.31591796875,3.4186924862730397
1.318359375,3.2270633524678836
1.32080078125,3.0345666361650743
1.3232421875,2.843156776993606
1.32568359375,2.6544302150933095
1.328125,2.4696663605412916
1.33056640625,2.289928306564544
1.3330078125,2.1162305464163995
1.33544921875,1.949777579491586
1.337890625,1.7922714058051403
1.34033203125,1.6462718719176805
1.3427734375,1.5155571229927223
1.34521484375,1.4053469754702612
1.34765625,1.322108547500573
1.35009765625,1.2725596174676728
1.3525390625,1.2617438822838456
1.35498046875,1.29091136830108
1.357421875,1.3566345712206456
1.35986328125,1.451818718659283
1.3623046875,1.5676852708907212
1.36474609375,1.6954274072989126
1.3671875,1.8270554846044529
1.36962890625,1.9556358342644247
1.3720703125,2.075252054289969
1.37451171875,2.180895989551889
1.376953125,2.2683752374864894
1.37939453125,2.3342603163461737
1.3818359375,2.375870456784017
1.38427734375,2.391291531356914
1.38671875,2.3794216355543654
1.38916015625,2.340044833886435
1.3916015625,2.273940559317723
1.39404296875,2.1830455935750717
1.396484375,2.070698236126612
1.39892578125,1.942008874414837
1.4013671875,1.804406550513657
1.40380859375,1.668363548305827
1.40625,1.5480765849605755
1.40869140625,1.4612834655107974
1.4111328125,1.4265945216102545
1.41357421875,1.4574769262933702
1.416015625,1.5562479405532155
1.41845703125,1.7138977899133445
1.4208984375,1.9155898984979758
1.42333984375,2.1462033249812946
1.42578125,2.392933525918177
1.42822265625,2.6457174619758637
1.4306640625,2.896856661709551
1.43310546875,3.1405424519853677
1.435546875,3.372490395894989
1.43798828125,3.5896981014066616
1.4404296875,3.7902923147799243
1.44287109375,3.9734291150561805
1.4453125,4.139218634551251
1.44775390625,4.288652914118467
1.4501953125,4.423520645052062
1.45263671875,4.546296334418494
1.455078125,4.659995009231685
1.45751953125,4.767988040272422
1.4599609375,4.8737817587301215
1.46240234375,4.980768294929728
1.46484375,5.091966482088975
1.46728515625,5.209777648333572
1.4697265625,5.335784055449767
1.47216796875,5.470614675540326
1.474609375,5.613893869107566
1.47705078125,5.764275632662537
1.4794921875,5.9195532172789305
1.48193359375,6.076824657818424
1.484375,6.232690942070603
1.48681640625,6.383464883470082
1.4892578125,6.525373458936121
1.49169921875,6.654742288731366
1.494140625,6.768156407918635
1.49658203125,6.862595645821118
1.4990234375,6.935545610858335
1.50146484375,6.9850866917103405
1.50390625,7.009963985720995
1.50634765625,7.009640975209576
1.5087890625,6.984339312143909
1.51123046875,6.935066344323352
1.513671875,6.863631020847857
1.51611328125,6.772647471230075
1.5185546875,6.665523738216808
1.52099609375,6.5464307555555985
1.5234375,6.420243728022256
1.52587890625,6.2924449475208375
1.5283203125,6.168974715217226
1.53076171875,6.056017217415691
1.533203125,5.959713456425986
1.53564453125,5.885806077140847
1.5380859375,5.839241434220743
1.54052734375,5.823778122287432
1.54296875,5.841668525361324
1.54541015625,5.893478917617721
1.5478515625,5.97808853351261
1.55029296875,6.092865797669273
1.552734375,6.233978180407272
1.55517578125,6.396768253608666
