Frequence_(Hz),Transforme_de_fourier
0.0,51.320247474075686
0.00244140625,51.22950925629247
0.0048828125,50.958640866439104
0.00732421875,50.51167428618761
0.009765625,49.895306626054456
0.01220703125,49.11886519079912
0.0146484375,48.19425699636476
0.01708984375,47.13590047636514
0.01953125,45.9606354195958
0.02197265625,44.68760459738664
0.0244140625,43.338096821119606
0.02685546875,41.9353361476279
0.029296875,40.50419570977795
0.03173828125,39.07080783735414
0.0341796875,37.66203640541031
0.03662109375,36.30477587368835
0.0390625,35.02504918373927
0.04150390625,33.84689954733942
0.0439453125,32.791113760601796
0.04638671875,31.87387552128999
0.048828125,31.105513493336833
0.05126953125,30.489554986786136
0.0537109375,30.0222917409816
0.05615234375,29.692992018889303
0.05859375,29.484765933967314
0.06103515625,29.375952450009034
0.0634765625,29.34179947879704
0.06591796875,29.35618436837566
0.068359375,29.393166249460258
0.07080078125,29.428243184824034
0.0732421875,29.4392704133418
0.07568359375,29.407058124784907
0.078125,29.315701414191903
0.08056640625,29.15270585627174
0.0830078125,28.908968147784982
0.08544921875,28.578660412269137
0.087890625,28.15905438261589
0.09033203125,27.650310557292805
0.0927734375,27.055248559944335
0.09521484375,26.37910831020861
0.09765625,25.629306780353186
0.10009765625,24.81519148649601
0.1025390625,23.94778889329143
0.10498046875,23.039543145987967
0.107421875,22.1040376822814
0.10986328125,21.155689242224664
0.1123046875,20.20940087259716
0.11474609375,19.280158563638345
0.1171875,18.382556799961446
0.11962890625,17.53024404433001
0.1220703125,16.735292898356853
0.12451171875,16.007523291507624
0.126953125,15.353838915671577
0.12939453125,14.777669414878629
0.1318359375,14.278629186550848
0.13427734375,13.852492157198899
0.13671875,13.491533367055565
0.13916015625,13.185213226379025
0.1416015625,12.921105922286024
0.14404296875,12.685928910275873
0.146484375,12.466529972415978
0.14892578125,12.250724736980555
0.1513671875,12.027930073570626
0.15380859375,11.78958682733681
0.15625,11.529397458704555
0.15869140625,11.243418705805967
0.1611328125,10.930050583903782
0.16357421875,10.58995643601441
0.166015625,10.22593866213695
0.16845703125,9.842783505671921
0.1708984375,9.447076534127875
0.17333984375,9.046977997997974
0.17578125,8.651933995920327
0.17822265625,8.272286752765723
0.1806640625,7.9187401349644615
0.18310546875,7.601644450986261
0.185546875,7.330100649885335
0.18798828125,7.110955985066564
0.1904296875,6.947857034318218
0.19287109375,6.8405941108021775
0.1953125,6.784950599882785
0.19775390625,6.773137556058104
0.2001953125,6.794705369046683
0.20263671875,6.837687091030974
0.205078125,6.8897101293511485
0.20751953125,6.938895753468005
0.2099609375,6.974479307497647
0.21240234375,6.98717028814881
0.21484375,6.969312360251898
0.21728515625,6.914909122036347
0.2197265625,6.819569635562768
0.22216796875,6.680411580450161
0.224609375,6.495945899964867
0.22705078125,6.265956926864626
0.2294921875,5.991385985092245
0.23193359375,5.674223550514455
0.234375,5.317414581088045
0.23681640625,4.924783512039033
0.2392578125,4.500990529126292
0.24169921875,4.051541816847805
0.244140625,3.5829005250350234
0.24658203125,3.1028000527863835
0.2490234375,2.620993994348485
0.25146484375,2.1510130851955704
0.25390625,1.7143275754251077
0.25634765625,1.349664458607008
0.2587890625,1.1256100158505744
0.26123046875,1.1157902583730586
0.263671875,1.3059719797132694
0.26611328125,1.6068798451971769
0.2685546875,1.9480686758790862
0.27099609375,2.292618887232217
0.2734375,2.6216289840056777
0.27587890625,2.9245393439725555
0.2783203125,3.194919815686149
0.28076171875,3.4286587993756723
0.283203125,3.623134630069956
0.28564453125,3.7768044406737675
0.2880859375,3.8889805954213883
0.29052734375,3.959695530754985
0.29296875,3.989609587924965
0.29541015625,3.9799399388936787
0.2978515625,3.9323996452439034
0.30029296875,3.8491412737993977
0.302734375,3.7327022850466314
0.30517578125,3.5859509329625836
0.3076171875,3.412032290926549
0.31005859375,3.2143145614256707
0.3125,2.9963362117748806
0.31494140625,2.7617548245890466
0.3173828125,2.514298983474036
0.31982421875,2.257725224098165
0.322265625,1.9957834627429978
0.32470703125,1.7321972981420515
0.3271484375,1.4706725892467893
0.32958984375,1.2149656953816375
0.33203125,0.9690940039537078
0.33447265625,0.7379365715903853
0.3369140625,0.5290798648531297
0.33935546875,0.35907289964971034
0.341796875,0.2694638598011124
0.34423828125,0.3010411390334182
0.3466796875,0.40306529311963685
0.34912109375,0.5181428263938659
0.3515625,0.6251117078286044
0.35400390625,0.7168581454643751
0.3564453125,0.7907516987251537
0.35888671875,0.845923237138471
0.361328125,0.8823828666745736
0.36376953125,0.900675784885501
0.3662109375,0.9017204663832673
0.36865234375,0.886716909070974
0.37109375,0.8570846199652589
0.37353515625,0.8144143687335144
0.3759765625,0.760426990339992
0.37841796875,0.6969364319472614
0.380859375,0.6258161440637314
0.38330078125,0.5489691753778824
0.3857421875,0.4683038576130362
0.38818359375,0.38572031804032975
0.390625,0.3031232897523723
0.39306640625,0.22251616920776354
0.3955078125,0.14643279961819136
0.39794921875,0.08049421133028996
0.400390625,0.05171305375538299
0.40283203125,0.08694286610290729
0.4052734375,0.13563666478305267
0.40771484375,0.1800773986962991
0.41015625,0.2169912295481508
0.41259765625,0.24532154687390964
0.4150390625,0.26466897046672117
0.41748046875,0.2749849550397405
0.419921875,0.2764907653935558
0.42236328125,0.26966163559669015
0.4248046875,0.2552487546928144
0.42724609375,0.23435137058547556
0.4296875,0.20858782145289875
0.43212890625,0.18047920774839574
0.4345703125,0.15423604189563095
0.43701171875,0.13679018083555644
0.439453125,0.1365571847565957
0.44189453125,0.15670130844973557
0.4443359375,0.1922801461516428
0.44677734375,0.23659676882763106
0.44921875,0.28495008090120993
0.45166015625,0.3343964383993919
0.4541015625,0.3829836500846561
0.45654296875,0.42930504126099744
0.458984375,0.47228617179912397
0.46142578125,0.5110852664081137
0.4638671875,0.5450459704216782
0.46630859375,0.5736742586095225
0.46875,0.5966264944715303
0.47119140625,0.6137024168647591
0.4736328125,0.6248399519636783
0.47607421875,0.6301102486311728
0.478515625,0.6297120853662903
0.48095703125,0.6239651781813351
0.4833984375,0.6133021010544903
0.48583984375,0.5982585887340218
0.48828125,0.5794619551787997
0.49072265625,0.5576172387485606
0.4931640625,0.5334904834908658
0.49560546875,0.5078883101468759
0.498046875,0.48163270180454254
0.50048828125,0.4555299149195041
0.5029296875,0.43033296598435533
0.50537109375,0.40669869682897253
0.5078125,0.3851433291019617
0.51025390625,0.3660043765827141
0.5126953125,0.3494202648909169
0.51513671875,0.3353394159245943
0.517578125,0.32356584804003047
0.52001953125,0.3138393150014967
0.5224609375,0.3059385804835059
0.52490234375,0.29979056805234444
0.52734375,0.29556614293963684
0.52978515625,0.2937418116258234
0.5322265625,0.295103305498132
0.53466796875,0.3006667687917366
0.537109375,0.3115097449740116
0.53955078125,0.32854612288066887
0.5419921875,0.3523248100265398
0.54443359375,0.38293256844564505
0.546875,0.42002224044811326
0.54931640625,0.46292092590517203
0.5517578125,0.5107536264129353
0.55419921875,0.5625419765684021
0.556640625,0.6172684350230643
0.55908203125,0.673912989058219
0.5615234375,0.731472939336217
0.56396484375,0.7889740095864137
0.56640625,0.8454777684420258
0.56884765625,0.9000879032682455
0.5712890625,0.9519564178523908
0.57373046875,1.0002900558222578
0.576171875,1.0443568919926443
0.57861328125,1.0834928909525956
0.5810546875,1.1171081952627453
0.58349609375,1.1446929166026583
0.5859375,1.165822233581337
0.58837890625,1.1801606365168176
0.5908203125,1.1874651966863916
0.59326171875,1.1875877733114875
0.595703125,1.1804761054669861
0.59814453125,1.166173768526589
0.6005859375,1.1448190063857737
0.60302734375,1.116642482563624
0.60546875,1.0819640268235464
0.60791015625,1.0411884913371359
0.6103515625,0.9948008750597302
0.61279296875,0.9433609324746455
0.615234375,0.8874975625783132
0.61767578125,0.8279033920088085
0.6201171875,0.7653301506168239
0.62255859375,0.7005857380518162
0.625,0.6345343838182174
0.62744140625,0.5681021640433153
0.6298828125,0.5022916087299208
0.63232421875,0.4382115568494235
0.634765625,0.3771319118236729
0.63720703125,0.32057566476872323
0.6396484375,0.27045152058605665
0.64208984375,0.2291684436628956
0.64453125,0.1994696447385262
0.64697265625,0.18345425885235347
0.6494140625,0.1808388784593842
0.65185546875,0.18833662863376163
0.654296875,0.20132816580701693
0.65673828125,0.21578767727288406
0.6591796875,0.22890855667752066
0.66162109375,0.23891301540684257
0.6640625,0.24472194194951843
0.66650390625,0.24570838797636713
0.6689453125,0.24154398158118423
0.67138671875,0.23210691311200207
0.673828125,0.21742582629307852
0.67626953125,0.19764394982651565
0.6787109375,0.1729946338572473
0.68115234375,0.14378339796895168
0.68359375,0.11037377583565125
0.68603515625,0.07317544449624942
0.6884765625,0.03263383174801759
0.69091796875,0.010780500875832702
0.693359375,0.056576209020486164
0.69580078125,0.10425664854770349
0.6982421875,0.1533211715336317
0.70068359375,0.20327468235526402
0.703125,0.2536336149374756
0.70556640625,0.3039316135015271
0.7080078125,0.35372452607449634
0.71044921875,0.4025946614393452
0.712890625,0.4501542776854837
0.71533203125,0.4960482834534792
0.7177734375,0.539956147405107
0.72021484375,0.5815930273829321
0.72265625,0.6207101476327875
0.72509765625,0.6570944697510654
0.7275390625,0.690567720050221
0.72998046875,0.7209848521313463
0.732421875,0.7482320378941026
0.73486328125,0.7722242922604841
0.7373046875,0.7929028458087022
0.73974609375,0.8102323846303354
0.7421875,0.8241982774757861
0.74462890625,0.8348039062546758
0.7470703125,0.8420682070639486
0.74951171875,0.8460235152723684
0.751953125,0.8467137902624297
0.75439453125,0.8441932740078841
0.7568359375,0.8385256138253815
0.75927734375,0.8297834546832343
0.76171875,0.8180484818096899
0.76416015625,0.8034118714656941
0.7666015625,0.785975087988443
0.76904296875,0.7658509497351049
0.771484375,0.7431648762671459
0.77392578125,0.718056224636699
0.7763671875,0.6906796243353208
0.77880859375,0.6612062285384449
0.78125,0.6298248139041227
0.78369140625,0.5967426827522465
0.7861328125,0.562186350911055
0.78857421875,0.5264020439094631
0.791015625,0.4896560774798333
0.79345703125,0.45223527277130865
0.7958984375,0.4144476650659396
0.79833984375,0.3766239291408133
0.80078125,0.33912020124613734
0.80322265625,0.3023233834081595
0.8056640625,0.2666606418685305
0.80810546875,0.23261568435126326
0.810546875,0.20075522025853598
0.81298828125,0.17176810519281796
0.8154296875,0.14651089652113453
0.81787109375,0.1260206254661059
0.8203125,0.11138081463600295
0.82275390625,0.10328568817883238
0.8251953125,0.10143070977641787
0.82763671875,0.1043743256738755
0.830078125,0.1101601862121655
0.83251953125,0.11703655073268031
0.8349609375,0.12374586308914695
0.83740234375,0.129493604359928
0.83984375,0.133830793478172
0.84228515625,0.13655361276592182
0.8447265625,0.13763771005084177
0.84716796875,0.13719978843295663
0.849609375,0.13547677482581275
0.85205078125,0.13281471275419057
0.8544921875,0.1296602759879319
0.85693359375,0.12654651006603695
0.859375,0.12406207454089872
0.86181640625,0.12279357274945157
0.8642578125,0.12323991671076767
0.86669921875,0.12571862665894074
0.869140625,0.13030319017460096
0.87158203125,0.13682360365002763
0.8740234375,0.14492678399418096
0.87646484375,0.15416252762714153
0.87890625,0.16406009842312316
0.88134765625,0.1741799839409844
0.8837890625,0.1841424440758507
0.88623046875,0.19364088788212075
0.888671875,0.20244746641080277
0.89111328125,0.2104155552364377
0.8935546875,0.2174814165204266
0.89599609375,0.2236657419412374
0.8984375,0.22907475485486078
0.90087890625,0.233899795382036
0.9033203125,0.23841366370403033
0.90576171875,0.24296148976542883
0.908203125,0.2479437937711894
0.91064453125,0.25379014798748945
0.9130859375,0.2609238425624655
0.91552734375,0.26972106569423204
0.91796875,0.2804712365609677
0.92041015625,0.29334645407342413
0.9228515625,0.30838621868422517
0.92529296875,0.3254991581670761
0.927734375,0.3444787069742724
0.93017578125,0.3650268709504572
0.9326171875,0.38678010501223464
0.93505859375,0.4093330670297179
0.9375,0.4322581964959881
0.93994140625,0.45512076137588636
0.9423828125,0.4774899521364661
0.94482421875,0.4989469250102676
0.947265625,0.5190906659219116
0.94970703125,0.5375423710517636
0.9521484375,0.5539488411760078
0.95458984375,0.5679852179666013
0.95703125,0.5793572655394559
0.95947265625,0.5878033163823163
0.9619140625,0.5930959486285122
0.96435546875,0.5950434328009966
0.966796875,0.5934909740094673
0.96923828125,0.588321775997383
0.9716796875,0.5794579647432301
0.97412109375,0.5668614325142847
0.9765625,0.5505347027731361
0.97900390625,0.5305219819818358
0.9814453125,0.5069106757721605
0.98388671875,0.4798338430895009
0.986328125,0.44947442193655623
0.98876953125,0.4160727514203152
0.9912109375,0.3799403058784968
0.99365234375,0.34148550069444766
0.99609375,0.3012639835948926
0.99853515625,0.260081080704512
1.0009765625,0.2192101250685251
1.00341796875,0.1808675933238254
1.005859375,0.14915554181581803
1.00830078125,0.1310239976805077
1.0107421875,0.1336223089872549
1.01318359375,0.15668902147475905
1.015625,0.1932601517898303
1.01806640625,0.23704366863409193
1.0205078125,0.2843619917956519
1.02294921875,0.3331807433511889
1.025390625,0.382282421709094
1.02783203125,0.43085555168918555
1.0302734375,0.4783046278616324
1.03271484375,0.5241600037855101
1.03515625,0.5680332349976387
1.03759765625,0.6095940040791789
1.0400390625,0.6485578006050698
1.04248046875,0.6846791926200066
1.044921875,0.7177480974353666
1.04736328125,0.7475876862734255
1.0498046875,0.774053171716187
1.05224609375,0.7970310490220563
1.0546875,0.8164385385577979
1.05712890625,0.832223076880695
1.0595703125,0.8443617633018011
1.06201171875,0.8528607051352941
1.064453125,0.8577542279719901
1.06689453125,0.8591039325569322
1.0693359375,0.8569975902421229
1.07177734375,0.8515478762988266
1.07421875,0.8428909456678572
1.07666015625,0.8311848596475513
1.0791015625,0.8166078749722919
1.08154296875,0.7993566089798995
1.083984375,0.7796440962767509
1.08642578125,0.7576977536049447
1.0888671875,0.7337572705831249
1.09130859375,0.7080724446967698
1.09375,0.6809009794052546
1.09619140625,0.6525062645469852
1.0986328125,0.6231551583793504
1.10107421875,0.5931157905801474
1.103515625,0.5626554053159892
1.10595703125,0.5320382629431135
1.1083984375,0.5015236178444837
1.11083984375,0.4713637879812706
1.11328125,0.4418023284091561
1.11572265625,0.41307231549791884
1.1181640625,0.38539473985932
1.12060546875,0.35897699285336365
1.123046875,0.3340114130669177
1.12548828125,0.3106738355282079
1.1279296875,0.2891220605973091
1.13037109375,0.26949413964020824
1.1328125,0.2519063766485108
1.13525390625,0.23645099257867258
1.1376953125,0.22319351678957414
1.14013671875,0.21217016393066995
1.142578125,0.20338568506934848
1.14501953125,0.19681234464764646
1.1474609375,0.19239062948043184
1.14990234375,0.1900319567857937
1.15234375,0.1896230900137997
1.15478515625,0.19103144012577403
1.1572265625,0.19411020189083572
1.15966796875,0.1987024599449537
1.162109375,0.204643870316771
1.16455078125,0.21176402539436343
1.1669921875,0.21988693840393736
1.16943359375,0.22883117492456287
1.171875,0.2384100711669077
1.17431640625,0.2484323119867976
1.1767578125,0.25870297758981803
1.17919921875,0.26902504792367243
1.181640625,0.27920128539365396
1.18408203125,0.28903638937982523
1.1865234375,0.29833931484955695
1.18896484375,0.30692565909416825
1.19140625,0.3146200365844254
1.19384765625,0.3212583774314791
1.1962890625,0.32669009801672144
1.19873046875,0.33078010265858676
1.201171875,0.333410583100165
1.20361328125,0.33448258875222187
1.2060546875,0.333917345623916
1.20849609375,0.33165730621988504
1.2109375,0.3276669167491454
1.21337890625,0.32193309203921333
1.2158203125,0.3144653927591032
1.21826171875,0.30529590406790796
1.220703125,0.29447881976339035
1.22314453125,0.2820897416106618
1.2255859375,0.2682247101374813
1.22802734375,0.2529989914589898
1.23046875,0.23654565594796131
1.23291015625,0.21901400142632274
1.2353515625,0.20056790149666498
1.23779296875,0.18138421058827822
1.240234375,0.16165145874081785
1.24267578125,0.14156928882469752
1.2451171875,0.12134960796733066
1.24755859375,0.10122177826096274
1.25,0.08144814026923365
1.25244140625,0.062369612999015465
1.2548828125,0.04455540253571832
1.25732421875,0.029386165179845863
1.259765625,0.02112581435133897
1.26220703125,0.0252292454061048
1.2646484375,0.03639149436999578
1.26708984375,0.04891368023888722
1.26953125,0.06100884004022409
1.27197265625,0.07209256316623848
1.2744140625,0.0819205583817908
1.27685546875,0.09037678211086048
1.279296875,0.09741019463977736
1.28173828125,0.1030119147752435
1.2841796875,0.10720550981166317
1.28662109375,0.11004214436136925
1.2890625,0.11159766300972505
1.29150390625,0.11197043461471136
1.2939453125,0.11127942393143365
1.29638671875,0.10966219458985853
1.298828125,0.10727261791147671
1.30126953125,0.10427804705082201
1.3037109375,0.10085565193378458
1.30615234375,0.0971875301454184
1.30859375,0.09345416823541544
1.31103515625,0.08982592451850988
1.3134765625,0.08645256971127416
1.31591796875,0.08345164923517491
1.318359375,0.08089742429272656
1.32080078125,0.0788129781025434
1.3232421875,0.07716807320187177
1.32568359375,0.07588410110701992
1.328125,0.07484536037193433
1.33056640625,0.07391403321743523
1.3330078125,0.07294558257321372
1.33544921875,0.07180196363898388
1.337890625,0.07036136621845884
1.34033203125,0.06852440941322528
1.3427734375,0.06621742168329206
1.34521484375,0.06339367923549677
1.34765625,0.06003344387231615
1.35009765625,0.05614353699099982
1.3525390625,0.05175715470742381
1.35498046875,0.046934796020782904
1.357421875,0.04176773609616865
1.35986328125,0.036386848637381175
1.3623046875,0.030982634703047674
1.36474609375,0.025848026557878878
1.3671875,0.021458222128984062
1.36962890625,0.018548801757018424
1.3720703125,0.017913925028771822
1.37451171875,0.019692724987081824
1.376953125,0.023166754890352706
1.37939453125,0.027484553197538255
1.3818359375,0.03207097483114482
1.38427734375,0.0365896856254763
1.38671875,0.04084355872890697
1.38916015625,0.044715366883302236
1.3916015625,0.04813915532698308
1.39404296875,0.05108715123179373
1.396484375,0.05356403647215382
1.39892578125,0.05560465013627698
1.4013671875,0.057273080324493866
1.40380859375,0.05866181619916387
1.40625,0.05988978982366896
1.40869140625,0.061098100661910584
1.4111328125,0.062442303829481224
1.41357421875,0.06408070746643554
1.416015625,0.06615939185492055
1.41845703125,0.0687963834178683
1.4208984375,0.0720686686781138
1.42333984375,0.07600542626043681
1.42578125,0.08058880531616851
1.42822265625,0.08576095851909404
1.4306640625,0.09143440754300926
1.43310546875,0.09750279129424962
1.435546875,0.10385007591635112
1.43798828125,0.110357495400352
1.4404296875,0.11690830663695907
1.44287109375,0.12339080478632634
1.4453125,0.1297001013994635
1.44775390625,0.13573908523320447
1.4501953125,0.14141887061957842
1.45263671875,0.14665893837857624
1.455078125,0.15138710247380452
1.45751953125,0.15553938957515945
1.4599609375,0.15905989177095284
1.46240234375,0.161900638500474
1.46484375,0.1640215276315175
1.46728515625,0.16539035446130593
1.4697265625,0.1659829796389741
1.47216796875,0.16578368202838678
1.474609375,0.16478575062609913
1.47705078125,0.1629923817896613
1.4794921875,0.1604179657540196
1.48193359375,0.15708987158890364
1.484375,0.15305087393299646
1.48681640625,0.1483624075617929
1.4892578125,0.14310888040539838
1.49169921875,0.1374032995039452
1.494140625,0.13139440907575825
1.49658203125,0.12527527375308214
1.4990234375,0.11929250626188599
1.50146484375,0.11375373779513448
1.50390625,0.10902812879373175
1.50634765625,0.1055313094038605
1.5087890625,0.10368531309634106
